                 Frequency                      S11
                       1                    -0.028545922
               1.0039999                     -0.02355127
                   1.008                    -0.019030833
                   1.012                    -0.015011439
                   1.016                    -0.011514547
                    1.02                   -0.0085582177
                   1.024                   -0.0061546957
                   1.028                   -0.0043150912
               1.0319999                   -0.0030413215
                   1.036                   -0.0023355889
                    1.04                   -0.0021921375
                   1.044                   -0.0026023541
                   1.048                   -0.0035545083
                   1.052                   -0.0050312046
                   1.056                   -0.0070116201
               1.0599999                   -0.0094731633
                   1.064                    -0.012387975
                   1.068                    -0.015725705
                   1.072                    -0.019452449
                   1.076                    -0.023533422
                    1.08                    -0.027929591
                   1.084                    -0.032602368
               1.0880001                     -0.03750908
                   1.092                    -0.042606639
                   1.096                    -0.047851472
                     1.1                    -0.053199427
                   1.104                    -0.058604643
                   1.108                    -0.064023038
                   1.112                    -0.069410487
               1.1160001                    -0.074722331
                    1.12                    -0.079917576
                   1.124                    -0.084954733
                   1.128                    -0.089795588
                   1.132                    -0.094400735
                   1.136                    -0.098737927
                    1.14                     -0.10277413
               1.1440001                     -0.10648039
                   1.148                      -0.1098308
                   1.152                     -0.11280137
                   1.156                      -0.1153751
                    1.16                     -0.11753481
                   1.164                     -0.11926929
                   1.168                     -0.12057019
               1.1720001                     -0.12143176
                   1.176                     -0.12185611
               1.1799999                      -0.1218431
                   1.184                     -0.12140102
                   1.188                     -0.12053893
                   1.192                     -0.11927203
                   1.196                     -0.11761577
                     1.2                     -0.11558931
                   1.204                     -0.11321598
               1.2079999                     -0.11052104
                   1.212                     -0.10753187
                   1.216                      -0.1042767
                    1.22                     -0.10078709
                   1.224                    -0.097095924
                   1.228                    -0.093235946
                   1.232                    -0.089243054
               1.2359999                    -0.085151313
                    1.24                    -0.080995663
                   1.244                    -0.076812317
                   1.248                    -0.072634459
                   1.252                    -0.068497439
                   1.256                    -0.064435098
                    1.26                    -0.060478268
               1.2640001                    -0.056659053
                   1.268                    -0.053005417
                   1.272                    -0.049544994
                   1.276                    -0.046303823
                    1.28                    -0.043305227
                   1.284                    -0.040569634
                   1.288                    -0.038116375
               1.2920001                    -0.035960827
                   1.296                    -0.034117776
                     1.3                    -0.032597023
                   1.304                    -0.031406741
                   1.308                    -0.030553038
                   1.312                    -0.030038746
                   1.316                    -0.029863472
               1.3200001                    -0.030025073
                   1.324                     -0.03051866
               1.3279999                    -0.031336177
                   1.332                    -0.032467359
                   1.336                    -0.033900064
                    1.34                    -0.035619364
                   1.344                    -0.037609856
                   1.348                    -0.039850754
                   1.352                    -0.042323287
               1.3559999                    -0.045005908
                    1.36                    -0.047873878
                   1.364                    -0.050902308
                   1.368                    -0.054067419
                   1.372                    -0.057341914
                   1.376                    -0.060698826
                    1.38                    -0.064110744
               1.3839999                    -0.067550382
                   1.388                    -0.070990883
                   1.392                    -0.074404115
                   1.396                    -0.077763439
                     1.4                    -0.081044876
                   1.404                    -0.084221843
                   1.408                    -0.087271222
               1.4119999                    -0.090171054
                   1.416                    -0.092898855
                    1.42                    -0.095435434
                   1.424                     -0.09776561
                   1.428                    -0.099871223
                   1.432                     -0.10173973
                   1.436                     -0.10335988
               1.4400001                     -0.10472224
                   1.444                     -0.10581954
                   1.448                     -0.10664704
                   1.452                     -0.10720347
                   1.456                     -0.10748682
                    1.46                     -0.10750192
                   1.464                     -0.10725063
               1.4680001                     -0.10674111
                   1.472                     -0.10598122
                   1.476                     -0.10498201
                    1.48                     -0.10375642
                   1.484                     -0.10231944
                   1.488                     -0.10068482
                   1.492                     -0.09887149
               1.4960001                    -0.096898524
                     1.5                    -0.094784835
               1.5039999                     -0.09255064
                   1.508                    -0.090218008
                   1.512                    -0.087810036
                   1.516                    -0.085346726
                    1.52                    -0.082851948
                   1.524                    -0.080348603
                   1.528                     -0.07785779
               1.5319999                    -0.075403151
                   1.536                    -0.073004129
                    1.54                    -0.070683217
                   1.544                    -0.068459424
                   1.548                    -0.066351634
                   1.552                    -0.064377572
                   1.556                    -0.062553999
               1.5599999                    -0.060896042
                   1.564                     -0.05941649
                   1.568                    -0.058128135
                   1.572                      -0.0570412
                   1.576                    -0.056163528
                    1.58                    -0.055504398
                   1.584                    -0.055065777
               1.5880001                    -0.054853123
                   1.592                    -0.054868152
                   1.596                    -0.055109507
                     1.6                    -0.055576157
                   1.604                    -0.056263403
                   1.608                    -0.057165939
                   1.612                    -0.058276931
               1.6160001                    -0.059587681
                    1.62                     -0.06108884
                   1.624                    -0.062767262
                   1.628                    -0.064611178
                   1.632                    -0.066606367
                   1.636                    -0.068737857
                    1.64                    -0.070989383
               1.6440001                    -0.073344438
                   1.648                    -0.075784719
                   1.652                     -0.07829346
                   1.656                    -0.080851754
                    1.66                    -0.083440467
                   1.664                     -0.08604083
                   1.668                    -0.088635617
               1.6720001                    -0.091204986
                   1.676                    -0.093732287
               1.6799999                    -0.096199066
                   1.684                    -0.098589327
                   1.688                     -0.10088595
                   1.692                     -0.10307458
                   1.696                     -0.10514128
                     1.7                     -0.10707243
                   1.704                      -0.1088571
               1.7079999                     -0.11048443
                   1.712                     -0.11194581
                   1.716                     -0.11323333
                    1.72                     -0.11434179
                   1.724                     -0.11526575
                   1.728                     -0.11600363
                   1.732                     -0.11655389
               1.7359999                     -0.11691639
                    1.74                       -0.117093
                   1.744                     -0.11708856
                   1.748                     -0.11690656
                   1.752                     -0.11655411
                   1.756                     -0.11603957
                    1.76                     -0.11537068
               1.7640001                     -0.11455835
                   1.768                     -0.11361586
                   1.772                     -0.11255314
                   1.776                     -0.11138485
                    1.78                     -0.11012459
                   1.784                     -0.10878771
                   1.788                     -0.10738865
               1.7920001                     -0.10594384
                   1.796                     -0.10446999
                     1.8                     -0.10298172
                   1.804                     -0.10149517
                   1.808                     -0.10002704
                   1.812                    -0.098592837
                   1.816                    -0.097207766
               1.8200001                    -0.095886574
                   1.824                    -0.094643486
               1.8279999                    -0.093491023
                   1.832                    -0.092443571
                   1.836                    -0.091511342
                    1.84                    -0.090705789
                   1.844                    -0.090035542
                   1.848                    -0.089509785
                   1.852                    -0.089135974
               1.8559999                    -0.088918783
                    1.86                    -0.088864396
                   1.864                    -0.088975355
                   1.868                    -0.089253859
                   1.872                    -0.089699633
                   1.876                     -0.09031395
                    1.88                    -0.091094317
               1.8839999                    -0.092035292
                   1.888                    -0.093135932
                   1.892                    -0.094387309
                   1.896                    -0.095784869
                     1.9                    -0.097318283
                   1.904                    -0.098980379
                   1.908                     -0.10076115
               1.9119999                     -0.10264784
                   1.916                     -0.10463053
                    1.92                     -0.10669682
                   1.924                     -0.10883309
                   1.928                     -0.11102536
                   1.932                      -0.1132609
                   1.936                     -0.11552593
               1.9400001                     -0.11780523
                   1.944                     -0.12008479
                   1.948                     -0.12235068
                   1.952                     -0.12458887
                   1.956                     -0.12678523
                    1.96                     -0.12892755
                   1.964                     -0.13100277
               1.9680001                     -0.13299783
                   1.972                     -0.13490262
                   1.976                     -0.13670646
                    1.98                     -0.13839899
                   1.984                     -0.13997204
                   1.988                     -0.14141867
                   1.992                     -0.14273016
               1.9960001                     -0.14390358
                       2                     -0.14493387
               2.0039999                     -0.14581762
               2.0079999                     -0.14655375
               2.0120001                     -0.14714152
                   2.016                     -0.14758102
                    2.02                     -0.14787555
               2.0239999                     -0.14802696
               2.0280001                     -0.14804048
               2.0320001                     -0.14792213
                   2.036                     -0.14767702
                    2.04                     -0.14731303
               2.0439999                     -0.14683955
               2.0480001                     -0.14626597
                   2.052                     -0.14560116
                   2.056                     -0.14485742
               2.0599999                     -0.14404586
               2.0639999                     -0.14317769
               2.0680001                      -0.1422663
                   2.072                     -0.14132423
                   2.076                     -0.14036302
               2.0799999                     -0.13939745
               2.0840001                     -0.13843958
               2.0880001                     -0.13750276
                   2.092                      -0.1365995
                   2.096                     -0.13574106
               2.0999999                      -0.1349404
               2.1040001                     -0.13420881
                   2.108                     -0.13355667
                   2.112                     -0.13299443
               2.1159999                     -0.13253045
               2.1199999                     -0.13217438
               2.1240001                     -0.13193331
                   2.128                     -0.13181344
                   2.132                     -0.13182165
               2.1359999                     -0.13196138
               2.1400001                     -0.13223621
               2.1440001                      -0.1326489
                   2.148                     -0.13320085
                   2.152                     -0.13389206
               2.1559999                      -0.1347217
               2.1600001                     -0.13568807
                   2.164                     -0.13678813
                   2.168                     -0.13801692
               2.1719999                     -0.13937067
               2.1760001                     -0.14084263
               2.1800001                     -0.14242509
                   2.184                     -0.14411111
                   2.188                     -0.14589154
               2.1919999                     -0.14775757
               2.1960001                     -0.14969861
                     2.2                     -0.15170488
                   2.204                     -0.15376367
               2.2079999                     -0.15586573
               2.2119999                     -0.15799728
               2.2160001                     -0.16014726
                    2.22                     -0.16230294
                   2.224                     -0.16445349
               2.2279999                     -0.16658578
               2.2320001                     -0.16868887
               2.2360001                     -0.17075053
                    2.24                     -0.17275965
                   2.244                     -0.17470632
               2.2479999                     -0.17657919
               2.2520001                     -0.17836984
                   2.256                     -0.18006925
                    2.26                     -0.18166968
               2.2639999                     -0.18316297
               2.2679999                     -0.18454328
               2.2720001                       -0.185807
                   2.276                     -0.18694857
                    2.28                     -0.18796463
               2.2839999                     -0.18885313
               2.2880001                     -0.18961324
               2.2920001                     -0.19024603
                   2.296                     -0.19075164
                     2.3                     -0.19113115
               2.3039999                     -0.19139017
               2.3080001                     -0.19153215
                   2.312                      -0.1915615
                   2.316                      -0.1914856
               2.3199999                     -0.19131073
               2.3239999                     -0.19104545
               2.3280001                     -0.19069884
                   2.332                      -0.1902796
                   2.336                     -0.18979818
               2.3399999                     -0.18926484
               2.3440001                     -0.18869074
                   2.348                     -0.18808717
                   2.352                     -0.18746533
               2.3559999                     -0.18683845
               2.3599999                     -0.18621703
               2.3640001                     -0.18561279
                   2.368                     -0.18503809
