                  Frequency                        S11
                       1                      -0.3617214
               1.0039999                     -0.36505306
                   1.008                     -0.36830248
                   1.012                     -0.37149258
                   1.016                     -0.37464667
                    1.02                     -0.37778932
                   1.024                     -0.38094535
                   1.028                     -0.38413914
               1.0319999                      -0.3873956
                   1.036                     -0.39074016
                    1.04                     -0.39419736
                   1.044                     -0.39779204
                   1.048                     -0.40154776
                   1.052                     -0.40548833
                   1.056                     -0.40963665
               1.0599999                     -0.41401355
                   1.064                     -0.41864091
                   1.068                     -0.42353809
                   1.072                     -0.42872365
                   1.076                     -0.43421414
                    1.08                     -0.44002674
                   1.084                     -0.44617466
               1.0880001                     -0.45267176
                   1.092                     -0.45952919
                   1.096                     -0.46675669
                     1.1                     -0.47436424
                   1.104                     -0.48235733
                   1.108                     -0.49074202
                   1.112                     -0.49952231
               1.1160001                     -0.50869981
                    1.12                     -0.51827585
                   1.124                     -0.52825061
                   1.128                     -0.53862123
                   1.132                     -0.54938451
                   1.136                     -0.56053622
                    1.14                     -0.57207079
               1.1440001                     -0.58398148
                   1.148                     -0.59625918
                   1.152                      -0.6088978
                   1.156                     -0.62188511
                    1.16                     -0.63521139
                   1.164                     -0.64886674
                   1.168                       -0.662838
               1.1720001                     -0.67711512
                   1.176                     -0.69168416
               1.1799999                     -0.70653373
                   1.184                     -0.72165042
                   1.188                     -0.73702315
                   1.192                     -0.75263836
                   1.196                     -0.76848378
                     1.2                     -0.78454873
                   1.204                     -0.80082098
               1.2079999                     -0.81729061
                   1.212                     -0.83394726
                   1.216                     -0.85078167
                    1.22                     -0.86778651
                   1.224                     -0.88495196
                   1.228                      -0.9022737
                   1.232                     -0.91974545
               1.2359999                     -0.93736271
                    1.24                     -0.95512288
                   1.244                     -0.97302459
                   1.248                     -0.99106547
                   1.252                      -1.0092486
                   1.256                      -1.0275745
                    1.26                      -1.0460462
               1.2640001                      -1.0646689
                   1.268                      -1.0834477
                   1.272                      -1.1023913
                   1.276                      -1.1215077
                    1.28                      -1.1408061
                   1.284                      -1.1602962
                   1.288                      -1.1799923
               1.2920001                      -1.1999067
                   1.296                      -1.2200517
                     1.3                      -1.2404446
                   1.304                      -1.2611004
                   1.308                      -1.2820351
                   1.312                      -1.3032679
                   1.316                      -1.3248157
               1.3200001                      -1.3466975
                   1.324                      -1.3689323
               1.3279999                      -1.3915403
                   1.332                      -1.4145394
                   1.336                      -1.4379514
                    1.34                      -1.4617959
                   1.344                      -1.4860931
                   1.348                      -1.5108645
                   1.352                      -1.5361286
               1.3559999                      -1.5619052
                    1.36                      -1.5882152
                   1.364                      -1.6150762
                   1.368                       -1.642509
                   1.372                      -1.6705301
                   1.376                      -1.6991585
                    1.38                      -1.7284118
               1.3839999                      -1.7583052
                   1.388                       -1.788856
                   1.392                      -1.8200781
                   1.396                      -1.8519878
                     1.4                      -1.8845967
                   1.404                      -1.9179188
                   1.408                      -1.9519653
               1.4119999                      -1.9867485
                   1.416                      -2.0222785
                    1.42                      -2.0585632
                   1.424                      -2.0956122
                   1.428                      -2.1334343
                   1.432                      -2.1720343
                   1.436                      -2.2114192
               1.4400001                      -2.2515944
                   1.444                      -2.2925639
                   1.448                      -2.3343315
                   1.452                      -2.3768997
                   1.456                      -2.4202712
                    1.46                      -2.4644485
                   1.464                      -2.5094305
               1.4680001                      -2.5552193
                   1.472                      -2.6018141
                   1.476                      -2.6492141
                    1.48                      -2.6974194
                   1.484                      -2.7464281
                   1.488                      -2.7962379
                   1.492                      -2.8468482
               1.4960001                      -2.8982569
                     1.5                      -2.9504617
               1.5039999                        -3.00346
                   1.508                      -3.0572508
                   1.512                      -3.1118318
                   1.516                      -3.1672013
                    1.52                      -3.2233583
                   1.524                      -3.2802999
                   1.528                      -3.3380265
               1.5319999                      -3.3965385
                   1.536                      -3.4558331
                    1.54                      -3.5159134
                   1.544                      -3.5767786
                   1.548                      -3.6384324
                   1.552                      -3.7008756
                   1.556                      -3.7641115
               1.5599999                       -3.828144
                   1.564                      -3.8929768
                   1.568                      -3.9586176
                   1.572                      -4.0250704
                   1.576                      -4.0923419
                    1.58                      -4.1604429
                   1.584                      -4.2293789
               1.5880001                      -4.2991599
                   1.592                      -4.3697979
                   1.596                      -4.4413039
                     1.6                      -4.5136888
                   1.604                      -4.5869663
                   1.608                      -4.6611495
                   1.612                      -4.7362545
               1.6160001                      -4.8122957
                    1.62                      -4.8892883
                   1.624                      -4.9672497
                   1.628                      -5.0461976
                   1.632                      -5.1261494
                   1.636                      -5.2071237
                    1.64                      -5.2891373
               1.6440001                      -5.3722112
                   1.648                      -5.4563656
                   1.652                      -5.5416188
                   1.656                      -5.6279902
                    1.66                      -5.7155016
                   1.664                      -5.8041723
                   1.668                      -5.8940208
               1.6720001                      -5.9850692
                   1.676                      -6.0773348
               1.6799999                      -6.1708381
                   1.684                      -6.2655979
                   1.688                      -6.3616319
                   1.692                      -6.4589576
                   1.696                      -6.5575924
                     1.7                      -6.6575529
                   1.704                      -6.7588538
               1.7079999                      -6.8615092
                   1.712                      -6.9655322
                   1.716                      -7.0709358
                    1.72                      -7.1777301
                   1.724                      -7.2859251
                   1.728                      -7.3955264
                   1.732                      -7.5065436
               1.7359999                      -7.6189785
                    1.74                      -7.7328356
                   1.744                      -7.8481147
                   1.748                      -7.9648152
                   1.752                      -8.0829336
                   1.756                      -8.2024655
                    1.76                       -8.323402
               1.7640001                      -8.4457329
                   1.768                      -8.5694452
                   1.772                      -8.6945253
                   1.776                       -8.820954
                    1.78                      -8.9487099
                   1.784                        -9.07777
                   1.788                      -9.2081065
               1.7920001                      -9.3396896
                   1.796                      -9.4724862
                     1.8                      -9.6064601
                   1.804                      -9.7415704
                   1.808                      -9.8777732
                   1.812                      -10.015021
                   1.816                      -10.153263
               1.8200001                      -10.292444
                   1.824                      -10.432505
               1.8279999                      -10.573383
                   1.832                      -10.715011
                   1.836                      -10.857316
                    1.84                      -11.000224
                   1.844                      -11.143656
                   1.848                      -11.287525
                   1.852                      -11.431743
               1.8559999                      -11.576217
                    1.86                      -11.720848
                   1.864                      -11.865534
                   1.868                      -12.010167
                   1.872                      -12.154635
                   1.876                      -12.298822
                    1.88                      -12.442605
               1.8839999                      -12.585859
                   1.888                      -12.728453
                   1.892                      -12.870251
                   1.896                      -13.011113
                     1.9                      -13.150895
                   1.904                      -13.289447
                   1.908                      -13.426616
               1.9119999                      -13.562244
                   1.916                      -13.696171
                    1.92                      -13.828233
                   1.924                      -13.958258
                   1.928                      -14.086076
                   1.932                      -14.211513
                   1.936                      -14.334391
               1.9400001                      -14.454531
                   1.944                      -14.571752
                   1.948                      -14.685874
                   1.952                      -14.796714
                   1.956                      -14.904091
                    1.96                      -15.007826
                   1.964                       -15.10774
               1.9680001                      -15.203657
                   1.972                      -15.295407
                   1.976                      -15.382824
                    1.98                      -15.465749
                   1.984                      -15.544029
                   1.988                       -15.61752
                   1.992                      -15.686087
               1.9960001                      -15.749609
                       2                      -15.807974
               2.0039999                      -15.861086
               2.0079999                       -15.90886
               2.0120001                      -15.951231
                   2.016                      -15.988146
                    2.02                      -16.019573
               2.0239999                      -16.045494
               2.0280001                      -16.065915
               2.0320001                      -16.080855
                   2.036                      -16.090353
                    2.04                       -16.09447
               2.0439999                       -16.09328
               2.0480001                      -16.086881
                   2.052                      -16.075383
                   2.056                      -16.058913
               2.0599999                      -16.037617
               2.0639999                      -16.011652
               2.0680001                      -15.981186
                   2.072                      -15.946403
                   2.076                      -15.907492
               2.0799999                      -15.864655
               2.0840001                      -15.818098
               2.0880001                      -15.768034
                   2.092                      -15.714676
                   2.096                      -15.658246
               2.0999999                      -15.598961
               2.1040001                      -15.537042
                   2.108                      -15.472703
                   2.112                      -15.406162
               2.1159999                      -15.337629
               2.1199999                       -15.26731
               2.1240001                      -15.195407
                   2.128                      -15.122116
                   2.132                      -15.047622
               2.1359999                       -14.97211
               2.1400001                      -14.895751
               2.1440001                      -14.818712
                   2.148                       -14.74115
                   2.152                      -14.663215
               2.1559999                      -14.585046
               2.1600001                      -14.506779
                   2.164                      -14.428534
                   2.168                      -14.350429
               2.1719999                      -14.272572
               2.1760001                      -14.195062
               2.1800001                      -14.117992
                   2.184                      -14.041444
                   2.188                      -13.965496
               2.1919999                      -13.890218
               2.1960001                      -13.815672
                     2.2                      -13.741915
                   2.204                      -13.668996
               2.2079999                      -13.596958
               2.2119999                      -13.525839
               2.2160001                      -13.455672
                    2.22                      -13.386484
                   2.224                      -13.318296
               2.2279999                      -13.251127
               2.2320001                      -13.184988
               2.2360001                       -13.11989
                    2.24                      -13.055836
                   2.244                      -12.992828
               2.2479999                      -12.930864
               2.2520001                      -12.869938
                   2.256                      -12.810044
                    2.26                       -12.75117
               2.2639999                      -12.693303
               2.2679999                      -12.636428
               2.2720001                      -12.580529
                   2.276                      -12.525586
                    2.28                       -12.47158
               2.2839999                      -12.418488
               2.2880001                      -12.366291
               2.2920001                      -12.314962
                   2.296                      -12.264479
                     2.3                      -12.214818
               2.3039999                      -12.165954
               2.3080001                      -12.117862
                   2.312                      -12.070519
                   2.316                      -12.023898
               2.3199999                      -11.977979
               2.3239999                      -11.932734
               2.3280001                      -11.888144
                   2.332                      -11.844185
                   2.336                      -11.800838
               2.3399999                      -11.758081
               2.3440001                      -11.715896
                   2.348                      -11.674264
                   2.352                       -11.63317
               2.3559999                      -11.592601
               2.3599999                      -11.552538
               2.3640001                      -11.512972
                   2.368                      -11.473891
